# t theta omega l v E_kin E_pot E_elastic E_tot
0.00000 1.00000 0.10000 1.50000 0.00000 0.01125 6.76445 1.25000 8.02570
0.01000 1.00072 0.04495 1.50002 0.00305 0.00228 6.77350 1.25008 8.02585
0.02000 1.00090 -0.01011 1.50006 0.00599 0.00013 6.77586 1.25030 8.02630
0.03000 1.00052 -0.06516 1.50014 0.00895 0.00482 6.77153 1.25068 8.02703
0.04000 0.99960 -0.12018 1.50024 0.01206 0.01633 6.76053 1.25120 8.02806
0.05000 0.99812 -0.17513 1.50038 0.01545 0.03464 6.74287 1.25189 8.02940
0.06000 0.99609 -0.23000 1.50055 0.01926 0.05974 6.71861 1.25275 8.03110
0.07000 0.99352 -0.28475 1.50076 0.02362 0.09159 6.68778 1.25382 8.03320
0.08000 0.99040 -0.33936 1.50103 0.02866 0.13015 6.65048 1.25513 8.03576
0.09000 0.98673 -0.39379 1.50134 0.03450 0.17536 6.60678 1.25671 8.03885
0.10000 0.98252 -0.44800 1.50172 0.04128 0.22717 6.55679 1.25861 8.04256
0.11000 0.97777 -0.50197 1.50217 0.04911 0.28550 6.50062 1.26087 8.04698
0.12000 0.97249 -0.55564 1.50270 0.05810 0.35027 6.43840 1.26356 8.05223
0.13000 0.96666 -0.60898 1.50334 0.06839 0.42141 6.37028 1.26673 8.05843
0.14000 0.96031 -0.66193 1.50408 0.08007 0.49880 6.29642 1.27047 8.06570
0.15000 0.95343 -0.71443 1.50494 0.09326 0.58236 6.21700 1.27483 8.07418
0.16000 0.94602 -0.76644 1.50595 0.10806 0.67195 6.13218 1.27991 8.08405
0.17000 0.93810 -0.81788 1.50711 0.12456 0.76746 6.04219 1.28580 8.09544
0.18000 0.92966 -0.86870 1.50844 0.14285 0.86875 5.94721 1.29258 8.10854
0.19000 0.92073 -0.91881 1.50997 0.16301 0.97569 5.84748 1.30036 8.12353
0.20000 0.91129 -0.96814 1.51171 0.18512 1.08812 5.74323 1.30924 8.14059
0.21000 0.90137 -1.01661 1.51368 0.20924 1.20587 5.63470 1.31934 8.15992
0.22000 0.89096 -1.06413 1.51590 0.23544 1.32879 5.52214 1.33078 8.18171
0.23000 0.88009 -1.11062 1.51840 0.26375 1.45669 5.40581 1.34368 8.20618
0.24000 0.86875 -1.15598 1.52119 0.29422 1.58938 5.28598 1.35817 8.23353
0.25000 0.85697 -1.20012 1.52429 0.32688 1.72665 5.16293 1.37440 8.26398
0.26000 0.84476 -1.24295 1.52773 0.36174 1.86831 5.03693 1.39250 8.29774
0.27000 0.83212 -1.28435 1.53153 0.39880 2.01412 4.90827 1.41263 8.33502
0.28000 0.81907 -1.32425 1.53571 0.43806 2.16386 4.77725 1.43495 8.37605
0.29000 0.80564 -1.36254 1.54030 0.47949 2.31728 4.64415 1.45962 8.42104
0.30000 0.79183 -1.39913 1.54531 0.52307 2.47412 4.50926 1.48682 8.47020
0.31000 0.77766 -1.43392 1.55077 0.56875 2.63412 4.37289 1.51673 8.52374
0.32000 0.76316 -1.46683 1.55669 0.61647 2.79699 4.23533 1.54953 8.58185
0.33000 0.74833 -1.49778 1.56310 0.66616 2.96245 4.09687 1.58543 8.64475
0.34000 0.73321 -1.52668 1.57002 0.71773 3.13019 3.95780 1.62463 8.71262
0.35000 0.71780 -1.55347 1.57746 0.77109 3.29989 3.81842 1.66733 8.78563
0.36000 0.70215 -1.57809 1.58545 0.82613 3.47121 3.67899 1.71376 8.86396
0.37000 0.68625 -1.60049 1.59399 0.88272 3.64383 3.53980 1.76413 8.94777
0.38000 0.67014 -1.62062 1.60311 0.94073 3.81737 3.40112 1.81870 9.03720
0.39000 0.65385 -1.63846 1.61281 1.00002 3.99148 3.26321 1.87769 9.13238
0.40000 0.63738 -1.65397 1.62311 1.06044 4.16577 3.12632 1.94135 9.23344
0.41000 0.62077 -1.66716 1.63402 1.12183 4.33985 2.99070 2.00993 9.34047
0.42000 0.60405 -1.67803 1.64555 1.18401 4.51331 2.85657 2.08369 9.45357
0.43000 0.58722 -1.68660 1.65771 1.24681 4.68574 2.72417 2.16288 9.57279
0.44000 0.57032 -1.69288 1.67049 1.31005 4.85673 2.59369 2.24778 9.69821
0.45000 0.55337 -1.69692 1.68391 1.37354 5.02584 2.46535 2.33865 9.82983
0.46000 0.53639 -1.69877 1.69796 1.43710 5.19262 2.33933 2.43575 9.96770
0.47000 0.51940 -1.69848 1.71265 1.50053 5.35665 2.21580 2.53934 10.11179
0.48000 0.50243 -1.69613 1.72797 1.56365 5.51747 2.09492 2.64970 10.26209
0.49000 0.48549 -1.69179 1.74392 1.62625 5.67463 1.97685 2.76709 10.41856
0.50000 0.46860 -1.68555 1.76049 1.68816 5.82767 1.86172 2.89175 10.58114
0.51000 0.45178 -1.67750 1.77768 1.74917 5.97617 1.74965 3.02393 10.74975
0.52000 0.43505 -1.66774 1.79547 1.80912 6.11965 1.64075 3.16389 10.92429
0.53000 0.41843 -1.65638 1.81386 1.86782 6.25769 1.53514 3.31183 11.10466
0.54000 0.40193 -1.64351 1.83282 1.92510 6.38985 1.43288 3.46798 11.29071
0.55000 0.38557 -1.62924 1.85236 1.98078 6.51570 1.33406 3.63255 11.48231
0.56000 0.36935 -1.61369 1.87243 2.03471 6.63483 1.23874 3.80571 11.67928
0.57000 0.35330 -1.59696 1.89304 2.08673 6.74684 1.14698 3.98763 11.88146
0.58000 0.33742 -1.57917 1.91416 2.13669 6.85135 1.05882 4.17846 12.08863
0.59000 0.32172 -1.56042 1.93577 2.18446 6.94798 0.97429 4.37832 12.30060
0.60000 0.30621 -1.54082 1.95784 2.22990 7.03640 0.89343 4.58732 12.51715
0.61000 0.29090 -1.52047 1.98036 2.27288 7.11627 0.81623 4.80552 12.73803
0.62000 0.27580 -1.49946 2.00329 2.31331 7.18730 0.74272 5.03298 12.96300
0.63000 0.26092 -1.47791 2.02662 2.35106 7.24921 0.67289 5.26971 13.19181
0.64000 0.24625 -1.45589 2.05030 2.38604 7.30176 0.60674 5.51570 13.42419
0.65000 0.23180 -1.43349 2.07433 2.41817 7.34471 0.54424 5.77090 13.65986
0.66000 0.21758 -1.41080 2.09866 2.44736 7.37790 0.48539 6.03525 13.89854
0.67000 0.20358 -1.38789 2.12327 2.47353 7.40115 0.43016 6.30862 14.13993
0.68000 0.18982 -1.36483 2.14812 2.49663 7.41435 0.37851 6.59088 14.38374
0.69000 0.17629 -1.34169 2.17319 2.51659 7.41742 0.33041 6.88184 14.62967
0.70000 0.16299 -1.31853 2.19844 2.53338 7.41029 0.28582 7.18129 14.87740
0.71000 0.14992 -1.29541 2.22384 2.54693 7.39294 0.24470 7.48897 15.12661
0.72000 0.13708 -1.27238 2.24937 2.55723 7.36541 0.20699 7.80460 15.37700
0.73000 0.12447 -1.24949 2.27498 2.56425 7.32774 0.17265 8.12784 15.62823
0.74000 0.11209 -1.22677 2.30064 2.56795 7.28003 0.14163 8.45834 15.87999
0.75000 0.09993 -1.20427 2.32633 2.56833 7.22240 0.11386 8.79570 16.13196
0.76000 0.08800 -1.18201 2.35200 2.56538 7.15503 0.08928 9.13948 16.38379
0.77000 0.07629 -1.16004 2.37762 2.55909 7.07812 0.06784 9.48921 16.63517
0.78000 0.06480 -1.13837 2.40317 2.54948 6.99190 0.04948 9.84440 16.88578
0.79000 0.05352 -1.11702 2.42860 2.53654 6.89666 0.03412 10.20450 17.13527
0.80000 0.04246 -1.09603 2.45389 2.52029 6.79270 0.02169 10.56894 17.38334
0.81000 0.03160 -1.07539 2.47900 2.50074 6.68037 0.01214 10.93714 17.62965
0.82000 0.02095 -1.05514 2.50389 2.47793 6.56004 0.00539 11.30845 17.87388
0.83000 0.01050 -1.03527 2.52854 2.45189 6.43212 0.00137 11.68222 18.11571
0.84000 0.00024 -1.01580 2.55292 2.42263 6.29705 0.00000 12.05778 18.35483
0.85000 -0.00982 -0.99673 2.57699 2.39020 6.15530 0.00122 12.43441 18.59093
0.86000 -0.01969 -0.97807 2.60071 2.35464 6.00734 0.00495 12.81139 18.82369
0.87000 -0.02938 -0.95983 2.62407 2.31599 5.85371 0.01111 13.18798 19.05281
0.88000 -0.03889 -0.94199 2.64702 2.27431 5.69495 0.01964 13.56340 19.27798
0.89000 -0.04822 -0.92457 2.66954 2.22963 5.53160 0.03045 13.93688 19.49893
0.90000 -0.05739 -0.90756 2.69160 2.18203 5.36425 0.04346 14.30763 19.71534
0.91000 -0.06638 -0.89096 2.71317 2.13155 5.19349 0.05861 14.67484 19.92695
0.92000 -0.07521 -0.87476 2.73423 2.07826 5.01994 0.07582 15.03770 20.13346
0.93000 -0.08387 -0.85897 2.75473 2.02222 4.84421 0.09500 15.39540 20.33461
0.94000 -0.09239 -0.84357 2.77466 1.96350 4.66693 0.11608 15.74712 20.53013
0.95000 -0.10075 -0.82857 2.79399 1.90216 4.48874 0.13898 16.09204 20.71976
0.96000 -0.10896 -0.81394 2.81270 1.83829 4.31028 0.16363 16.42934 20.90325
0.97000 -0.11703 -0.79970 2.83075 1.77195 4.13219 0.18994 16.75822 21.08036
0.98000 -0.12495 -0.78583 2.84813 1.70323 3.95512 0.21784 17.07788 21.25083
0.99000 -0.13274 -0.77231 2.86481 1.63220 3.77969 0.24725 17.38752 21.41445
1.00000 -0.14040 -0.75916 2.88076 1.55895 3.60654 0.27809 17.68637 21.57100
1.01000 -0.14793 -0.74635 2.89598 1.48355 3.43630 0.31028 17.97367 21.72025
1.02000 -0.15533 -0.73388 2.91043 1.40610 3.26958 0.34374 18.24868 21.86200
1.03000 -0.16261 -0.72173 2.92409 1.32668 3.10697 0.37840 18.51068 21.99606
1.04000 -0.16977 -0.70991 2.93696 1.24539 2.94907 0.41418 18.75898 22.12224
1.05000 -0.17681 -0.69840 2.94900 1.16230 2.79643 0.45100 18.99292 22.24035
1.06000 -0.18373 -0.68720 2.96020 1.07753 2.64960 0.48879 19.21184 22.35022
1.07000 -0.19055 -0.67629 2.97054 0.99115 2.50910 0.52746 19.41515 22.45171
1.08000 -0.19726 -0.66566 2.98001 0.90327 2.37543 0.56693 19.60228 22.54464
1.09000 -0.20387 -0.65531 2.98860 0.81399 2.24906 0.60714 19.77268 22.62888
1.10000 -0.21037 -0.64522 2.99629 0.72339 2.13043 0.64801 19.92586 22.70430
1.11000 -0.21677 -0.63540 3.00307 0.63158 2.01996 0.68946 20.06135 22.77077
1.12000 -0.22308 -0.62582 3.00892 0.53867 1.91803 0.73141 20.17875 22.82818
1.13000 -0.22929 -0.61649 3.01384 0.44474 1.82498 0.77378 20.27766 22.87643
1.14000 -0.23541 -0.60739 3.01781 0.34991 1.74112 0.81652 20.35777 22.91541
1.15000 -0.24144 -0.59851 3.02083 0.25427 1.66673 0.85953 20.41878 22.94505
1.16000 -0.24738 -0.58984 3.02289 0.15793 1.60205 0.90276 20.46047 22.96527
1.17000 -0.25323 -0.58138 3.02399 0.06099 1.54728 0.94611 20.48262 22.97602
1.18000 -0.25901 -0.57311 3.02411 -0.03645 1.50258 0.98953 20.48511 22.97722
1.19000 -0.26470 -0.56503 3.02326 -0.13428 1.46807 1.03294 20.46784 22.96885
1.20000 -0.27031 -0.55714 3.02142 -0.23240 1.44382 1.07627 20.43077 22.95087
1.21000 -0.27584 -0.54941 3.01861 -0.33070 1.42989 1.11946 20.37390 22.92325
1.22000 -0.28130 -0.54184 3.01481 -0.42908 1.42628 1.16242 20.29729 22.88598
1.23000 -0.28668 -0.53442 3.01003 -0.52743 1.43293 1.20510 20.20104 22.83907
1.24000 -0.29199 -0.52715 3.00426 -0.62566 1.44977 1.24742 20.08532 22.78251
1.25000 -0.29722 -0.52001 2.99751 -0.72366 1.47668 1.28932 19.95032 22.71632
1.26000 -0.30239 -0.51300 2.98979 -0.82132 1.51349 1.33074 19.79631 22.64053
1.27000 -0.30748 -0.50610 2.98109 -0.91855 1.56001 1.37160 19.62358 22.55519
1.28000 -0.31251 -0.49931 2.97142 -1.01524 1.61599 1.41185 19.43249 22.46033
1.29000 -0.31747 -0.49262 2.96079 -1.11128 1.68116 1.45143 19.22343 22.35602
1.30000 -0.32236 -0.48602 2.94920 -1.20659 1.75521 1.49027 18.99684 22.24232
1.31000 -0.32719 -0.47950 2.93666 -1.30106 1.83778 1.52831 18.75322 22.11932
1.32000 -0.33195 -0.47304 2.92318 -1.39460 1.92850 1.56550 18.49308 21.98709
1.33000 -0.33665 -0.46665 2.90877 -1.48710 2.02696 1.60177 18.21700 21.84573
1.34000 -0.34128 -0.46030 2.89344 -1.57846 2.13269 1.63707 17.92559 21.69535
1.35000 -0.34586 -0.45399 2.87720 -1.66861 2.24525 1.67135 17.61948 21.53607
1.36000 -0.35036 -0.44771 2.86007 -1.75743 2.36411 1.70455 17.29935 21.36802
1.37000 -0.35481 -0.44145 2.84206 -1.84485 2.48876 1.73662 16.96593 21.19131
1.38000 -0.35919 -0.43519 2.82318 -1.93076 2.61866 1.76751 16.61994 21.00611
1.39000 -0.36351 -0.42892 2.80345 -2.01508 2.75322 1.79716 16.26217 20.81255
1.40000 -0.36777 -0.42263 2.78288 -2.09773 2.89187 1.82554 15.89339 20.61080
1.41000 -0.37197 -0.41631 2.76150 -2.17861 3.03400 1.85259 15.51444 20.40103
1.42000 -0.37610 -0.40994 2.73932 -2.25764 3.17900 1.87827 15.12615 20.18342
1.43000 -0.38017 -0.40351 2.71636 -2.33475 3.32623 1.90254 14.72938 19.95815
1.44000 -0.38417 -0.39701 2.69263 -2.40985 3.47506 1.92535 14.32499 19.72541
1.45000 -0.38811 -0.39041 2.66817 -2.48286 3.62486 1.94667 13.91388 19.48540
1.46000 -0.39198 -0.38371 2.64298 -2.55372 3.77496 1.96645 13.49692 19.23834
1.47000 -0.39578 -0.37688 2.61710 -2.62233 3.92473 1.98467 13.07504 18.98444
1.48000 -0.39951 -0.36990 2.59054 -2.68865 4.07353 2.00128 12.64911 18.72391
1.49000 -0.40318 -0.36277 2.56333 -2.75258 4.22070 2.01625 12.22006 18.45700
1.50000 -0.40677 -0.35545 2.53550 -2.81408 4.36562 2.02954 11.78877 18.18394
1.51000 -0.41028 -0.34792 2.50706 -2.87306 4.50767 2.04114 11.35615 17.90496
1.52000 -0.41373 -0.34017 2.47805 -2.92948 4.64622 2.05102 10.92309 17.62033
1.53000 -0.41709 -0.33217 2.44848 -2.98327 4.78069 2.05913 10.49046 17.33028
1.54000 -0.42037 -0.32389 2.41839 -3.03437 4.91049 2.06547 10.05913 17.03510
1.55000 -0.42356 -0.31531 2.38780 -3.08274 5.03506 2.07001 9.62996 16.73503
1.56000 -0.42667 -0.30639 2.35674 -3.12831 5.15386 2.07273 9.20376 16.43035
1.57000 -0.42969 -0.29711 2.32524 -3.17104 5.26638 2.07361 8.78136 16.12135
1.58000 -0.43261 -0.28744 2.29333 -3.21087 5.37211 2.07264 8.36354 15.80829
1.59000 -0.43544 -0.27733 2.26104 -3.24777 5.47061 2.06979 7.95107 15.49147
1.60000 -0.43816 -0.26676 2.22839 -3.28170 5.56144 2.06506 7.54467 15.17118
1.61000 -0.44077 -0.25568 2.19541 -3.31260 5.64420 2.05845 7.14506 14.84770
1.62000 -0.44327 -0.24405 2.16215 -3.34045 5.71851 2.04993 6.75291 14.52134
1.63000 -0.44565 -0.23182 2.12861 -3.36520 5.78405 2.03951 6.36885 14.19241
1.64000 -0.44790 -0.21896 2.09485 -3.38683 5.84052 2.02717 5.99350 13.86119
1.65000 -0.45003 -0.20540 2.06089 -3.40531 5.88766 2.01293 5.62742 13.52801
1.66000 -0.45201 -0.19111 2.02676 -3.42060 5.92526 1.99678 5.27114 13.19318
1.67000 -0.45385 -0.17600 1.99249 -3.43268 5.95312 1.97873 4.92515 12.85700
1.68000 -0.45553 -0.16004 1.95811 -3.44152 5.97112 1.95877 4.58990 12.51979
1.69000 -0.45704 -0.14315 1.92367 -3.44709 5.97915 1.93693 4.26581 12.18188
1.70000 -0.45839 -0.12527 1.88918 -3.44939 5.97715 1.91320 3.95322 11.84358
1.71000 -0.45955 -0.10632 1.85469 -3.44839 5.96512 1.88761 3.65248 11.50522
1.72000 -0.46051 -0.08623 1.82023 -3.44406 5.94309 1.86018 3.36385 11.16711
1.73000 -0.46127 -0.06492 1.78582 -3.43639 5.91112 1.83091 3.08757 10.82960
1.74000 -0.46180 -0.04230 1.75151 -3.42537 5.86933 1.79984 2.82383 10.49300
1.75000 -0.46211 -0.01829 1.71732 -3.41098 5.81788 1.76700 2.57277 10.15765
1.76000 -0.46216 0.00721 1.68330 -3.39320 5.75697 1.73241 2.33450 9.82388
1.77000 -0.46196 0.03430 1.64947 -3.37202 5.68685 1.69611 2.10907 9.49202
1.78000 -0.46147 0.06307 1.61587 -3.34741 5.60778 1.65813 1.89649 9.16240
1.79000 -0.46069 0.09363 1.58253 -3.31938 5.52012 1.61852 1.69673 8.83537
1.80000 -0.45959 0.12608 1.54950 -3.28789 5.42420 1.57732 1.50973 8.51125
1.81000 -0.45816 0.16053 1.51679 -3.25294 5.32045 1.53460 1.33535 8.19040
1.82000 -0.45638 0.19710 1.48445 -3.21450 5.20930 1.49039 1.17345 7.87314
1.83000 -0.45421 0.23589 1.45251 -3.17255 5.09123 1.44477 1.02383 7.55983
1.84000 -0.45165 0.27701 1.42101 -3.12707 4.96675 1.39781 0.88624 7.25080
1.85000 -0.44867 0.32057 1.38998 -3.07803 4.83642 1.34957 0.76042 6.94641
1.86000 -0.44523 0.36666 1.35946 -3.02542 4.70081 1.30014 0.64606 6.64701
1.87000 -0.44132 0.41539 1.32948 -2.96919 4.56053 1.24961 0.54280 6.35294
1.88000 -0.43691 0.46683 1.30009 -2.90931 4.41623 1.19808 0.45027 6.06457
1.89000 -0.43198 0.52105 1.27131 -2.84576 4.26857 1.14564 0.36805 5.78226
1.90000 -0.42648 0.57811 1.24319 -2.77848 4.11824 1.09242 0.29570 5.50636
1.91000 -0.42041 0.63803 1.21575 -2.70744 3.96597 1.03852 0.23275 5.23724
1.92000 -0.41371 0.70080 1.18905 -2.63260 3.81249 0.98409 0.17870 4.97528
1.93000 -0.40638 0.76641 1.16311 -2.55391 3.65855 0.92927 0.13303 4.72085
1.94000 -0.39838 0.83477 1.13798 -2.47133 3.50493 0.87420 0.09520 4.47433
1.95000 -0.38968 0.90575 1.11370 -2.38480 3.35241 0.81905 0.06464 4.23611
1.96000 -0.38025 0.97920 1.09030 -2.29429 3.20179 0.76400 0.04077 4.00656
1.97000 -0.37008 1.05488 1.06783 -2.19975 3.05387 0.70922 0.02300 3.78610
1.98000 -0.35915 1.13247 1.04632 -2.10116 2.90947 0.65491 0.01073 3.57510
1.99000 -0.34743 1.21161 1.02582 -1.99849 2.76938 0.60127 0.00333 3.37398
2.00000 -0.33491 1.29184 1.00636 -1.89173 2.63441 0.54853 0.00020 3.18313
2.01000 -0.32159 1.37263 0.98800 -1.78088 2.50535 0.49689 0.00072 3.00296
2.02000 -0.30746 1.45336 0.97076 -1.66597 2.38299 0.44659 0.00427 2.83386
2.03000 -0.29253 1.53332 0.95469 -1.54704 2.26810 0.39786 0.01026 2.67623
2.04000 -0.27680 1.61174 0.93983 -1.42418 2.16141 0.35095 0.01810 2.53046
2.05000 -0.26030 1.68777 0.92622 -1.29749 2.06362 0.30609 0.02722 2.39693
2.06000 -0.24306 1.76053 0.91389 -1.16712 1.97542 0.26352 0.03707 2.27601
2.07000 -0.22510 1.82906 0.90289 -1.03326 1.89744 0.22346 0.04715 2.16805
2.08000 -0.20649 1.89244 0.89324 -0.89612 1.83025 0.18615 0.05699 2.07339
2.09000 -0.18727 1.94973 0.88498 -0.75599 1.77439 0.15180 0.06615 1.99233
2.10000 -0.16752 2.00006 0.87813 -0.61318 1.73030 0.12059 0.07426 1.92515
2.11000 -0.14730 2.04260 0.87272 -0.46803 1.69839 0.09271 0.08100 1.87210
2.12000 -0.12670 2.07665 0.86878 -0.32096 1.67898 0.06831 0.08610 1.83339
2.13000 -0.10580 2.10166 0.86631 -0.17238 1.67230 0.04752 0.08937 1.80918
2.14000 -0.08469 2.11719 0.86533 -0.02274 1.67850 0.03043 0.09068 1.79960
2.15000 -0.06349 2.12301 0.86585 0.12747 1.69765 0.01711 0.08997 1.80474
2.16000 -0.04227 2.11908 0.86788 0.27778 1.72974 0.00760 0.08728 1.82462
2.17000 -0.02114 2.10551 0.87141 0.42770 1.77464 0.00191 0.08268 1.85923
2.18000 -0.00019 2.08263 0.87643 0.57676 1.83216 0.00000 0.07634 1.90850
2.19000 0.02049 2.05092 0.88294 0.72449 1.90201 0.00182 0.06852 1.97234
2.20000 0.04080 2.01099 0.89092 0.87047 1.98382 0.00727 0.05950 2.05059
2.21000 0.06068 1.96360 0.90034 1.01428 2.07714 0.01626 0.04966 2.14306
2.22000 0.08005 1.90958 0.91119 1.15555 2.18145 0.02863 0.03943 2.24951
2.23000 0.09885 1.84982 0.92344 1.29396 2.29615 0.04423 0.02930 2.36968
2.24000 0.11703 1.78524 0.93706 1.42921 2.42059 0.06288 0.01981 2.50328
2.25000 0.13455 1.71676 0.95202 1.56106 2.55406 0.08441 0.01151 2.64998
2.26000 0.15136 1.64529 0.96827 1.68929 2.69581 0.10860 0.00503 2.80944
2.27000 0.16744 1.57167 0.98579 1.81373 2.84503 0.13525 0.00101 2.98130
2.28000 0.18279 1.49671 1.00453 1.93425 3.00090 0.16417 0.00010 3.16517
2.29000 0.19738 1.42112 1.02446 2.05073 3.16255 0.19513 0.00299 3.36066
2.30000 0.21121 1.34556 1.04553 2.16310 3.32910 0.22792 0.01037 3.56739
2.31000 0.22429 1.27060 1.06771 2.27131 3.49965 0.26236 0.02292 3.78493
2.32000 0.23663 1.19672 1.09095 2.37531 3.67330 0.29822 0.04136 4.01288
2.33000 0.24823 1.12434 1.11520 2.47510 3.84914 0.33533 0.06636 4.25083
2.34000 0.25912 1.05378 1.14043 2.57066 4.02626 0.37349 0.09861 4.49836
2.35000 0.26931 0.98532 1.16660 2.66199 4.20375 0.41252 0.13878 4.75505
2.36000 0.27883 0.91916 1.19366 2.74912 4.38072 0.45226 0.18752 5.02050
2.37000 0.28770 0.85545 1.22157 2.83206 4.55628 0.49255 0.24546 5.29429
2.38000 0.29595 0.79428 1.25029 2.91083 4.72957 0.53323 0.31322 5.57601
2.39000 0.30360 0.73573 1.27977 2.98546 4.89974 0.57416 0.39136 5.86526
2.40000 0.31067 0.67980 1.30998 3.05596 5.06598 0.61520 0.48044 6.16163
2.41000 0.31720 0.62650 1.34088 3.12238 5.22749 0.65623 0.58099 6.46471
2.42000 0.32321 0.57579 1.37242 3.18474 5.38350 0.69713 0.69347 6.77411
2.43000 0.32873 0.52763 1.40456 3.24305 5.53329 0.73780 0.81834 7.08942
2.44000 0.33377 0.48194 1.43726 3.29735 5.67615 0.77811 0.95600 7.41026
2.45000 0.33837 0.43865 1.47049 3.34765 5.81143 0.81799 1.10681 7.73623
2.46000 0.34255 0.39768 1.50420 3.39399 5.93849 0.85734 1.27111 8.06694
2.47000 0.34634 0.35892 1.53836 3.43638 6.05678 0.89607 1.44915 8.40200
2.48000 0.34974 0.32228 1.57292 3.47484 6.16573 0.93412 1.64118 8.74103
2.49000 0.35279 0.28766 1.60784 3.50939 6.26487 0.97140 1.84736 9.08364
2.50000 0.35550 0.25497 1.64309 3.54005 6.35374 1.00786 2.06784 9.42944
2.51000 0.35789 0.22410 1.67863 3.56685 6.43195 1.04342 2.30270 9.77807
2.52000 0.35999 0.19495 1.71442 3.58979 6.49914 1.07804 2.55196 10.12913
2.53000 0.36180 0.16742 1.75041 3.60890 6.55501 1.11165 2.81560 10.48226
2.54000 0.36334 0.14143 1.78658 3.62419 6.59931 1.14421 3.09356 10.83707
2.55000 0.36463 0.11689 1.82288 3.63569 6.63183 1.17568 3.38570 11.19320
2.56000 0.36568 0.09370 1.85928 3.64342 6.65243 1.20600 3.69184 11.55027
2.57000 0.36651 0.07178 1.89574 3.64740 6.66101 1.23515 4.01176 11.90792
2.58000 0.36712 0.05106 1.93222 3.64764 6.65752 1.26309 4.34516 12.26577
2.59000 0.36753 0.03146 1.96868 3.64419 6.64197 1.28978 4.69172 12.62347
2.60000 0.36775 0.01290 2.00509 3.63705 6.61441 1.31519 5.05104 12.98064
2.61000 0.36780 -0.00468 2.04141 3.62627 6.57495 1.33931 5.42268 13.33694
2.62000 0.36766 -0.02135 2.07760 3.61186 6.52375 1.36209 5.80615 13.69200
2.63000 0.36737 -0.03716 2.11364 3.59386 6.46102 1.38353 6.20092 14.04547
