# t theta omega E_kin E_pot E_tot
0.00000 0.78540 0.10000 0.00500 2.87328 2.87828
0.01000 0.78610 0.04053 0.00082 2.87816 2.87898
0.02000 0.78621 -0.01891 0.00018 2.87891 2.87909
0.03000 0.78572 -0.07830 0.00307 2.87553 2.87860
0.04000 0.78464 -0.13761 0.00947 2.86805 2.87752
0.05000 0.78297 -0.19680 0.01937 2.85647 2.87583
0.06000 0.78071 -0.25584 0.03273 2.84082 2.87355
0.07000 0.77785 -0.31471 0.04952 2.82115 2.87067
0.08000 0.77441 -0.37336 0.06970 2.79751 2.86721
0.09000 0.77039 -0.43176 0.09321 2.76995 2.86316
0.10000 0.76578 -0.48989 0.12000 2.73854 2.85854
0.11000 0.76059 -0.54771 0.14999 2.70336 2.85335
0.12000 0.75483 -0.60519 0.18313 2.66449 2.84762
0.13000 0.74849 -0.66229 0.21931 2.62204 2.84135
0.14000 0.74158 -0.71897 0.25846 2.57610 2.83456
0.15000 0.73411 -0.77521 0.30048 2.52680 2.82727
0.16000 0.72608 -0.83097 0.34526 2.47425 2.81951
0.17000 0.71749 -0.88622 0.39269 2.41859 2.81128
0.18000 0.70836 -0.94090 0.44265 2.35998 2.80263
0.19000 0.69868 -0.99500 0.49501 2.29854 2.79356
0.20000 0.68846 -1.04847 0.54964 2.23446 2.78411
0.21000 0.67771 -1.10127 0.60640 2.16791 2.77430
0.22000 0.66644 -1.15336 0.66512 2.09905 2.76417
0.23000 0.65465 -1.20471 0.72567 2.02808 2.75375
0.24000 0.64234 -1.25527 0.78786 1.95520 2.74306
0.25000 0.62954 -1.30501 0.85153 1.88061 2.73213
0.26000 0.61625 -1.35388 0.91650 1.80452 2.72101
0.27000 0.60247 -1.40184 0.98258 1.72715 2.70973
0.28000 0.58821 -1.44885 1.04958 1.64874 2.69832
0.29000 0.57349 -1.49487 1.11732 1.56950 2.68681
0.30000 0.55832 -1.53985 1.18557 1.48968 2.67525
0.31000 0.54270 -1.58376 1.25414 1.40953 2.66367
0.32000 0.52665 -1.62654 1.32282 1.32929 2.65211
0.33000 0.51017 -1.66817 1.39139 1.24921 2.64060
0.34000 0.49329 -1.70859 1.45963 1.16955 2.62918
0.35000 0.47601 -1.74776 1.52733 1.09056 2.61789
0.36000 0.45834 -1.78564 1.59426 1.01250 2.60676
0.37000 0.44030 -1.82220 1.66021 0.93563 2.59584
0.38000 0.42190 -1.85738 1.72494 0.86021 2.58515
0.39000 0.40315 -1.89116 1.78824 0.78649 2.57473
0.40000 0.38408 -1.92348 1.84989 0.71472 2.56462
0.41000 0.36469 -1.95432 1.90968 0.64516 2.55485
0.42000 0.34500 -1.98363 1.96740 0.57805 2.54545
0.43000 0.32502 -2.01138 2.02283 0.51362 2.53645
0.44000 0.30478 -2.03754 2.07578 0.45210 2.52789
0.45000 0.28428 -2.06207 2.12606 0.39373 2.51979
0.46000 0.26354 -2.08493 2.17348 0.33870 2.51218
0.47000 0.24258 -2.10611 2.21785 0.28723 2.50509
0.48000 0.22142 -2.12557 2.25903 0.23951 2.49853
0.49000 0.20008 -2.14329 2.29684 0.19570 2.49254
0.50000 0.17856 -2.15924 2.33115 0.15598 2.48713
0.51000 0.15690 -2.17340 2.36182 0.12050 2.48233
0.52000 0.13510 -2.18575 2.38874 0.08939 2.47813
0.53000 0.11319 -2.19627 2.41180 0.06278 2.47458
0.54000 0.09118 -2.20495 2.43091 0.04075 2.47166
0.55000 0.06910 -2.21178 2.44599 0.02341 2.46940
0.56000 0.04695 -2.21675 2.45699 0.01081 2.46780
0.57000 0.02477 -2.21984 2.46385 0.00301 2.46686
0.58000 0.00256 -2.22107 2.46657 0.00003 2.46660
0.59000 -0.01965 -2.22041 2.46511 0.00189 2.46700
0.60000 -0.04184 -2.21788 2.45949 0.00858 2.46808
0.61000 -0.06400 -2.21347 2.44973 0.02008 2.46981
0.62000 -0.08610 -2.20720 2.43587 0.03634 2.47221
0.63000 -0.10813 -2.19907 2.41795 0.05730 2.47525
0.64000 -0.13008 -2.18909 2.39606 0.08288 2.47894
0.65000 -0.15191 -2.17728 2.37027 0.11297 2.48324
0.66000 -0.17362 -2.16365 2.34068 0.14748 2.48816
0.67000 -0.19518 -2.14822 2.30741 0.18626 2.49367
0.68000 -0.21657 -2.13100 2.27059 0.22917 2.49976
0.69000 -0.23779 -2.11204 2.23035 0.27605 2.50639
0.70000 -0.25881 -2.09133 2.18684 0.32672 2.51356
0.71000 -0.27961 -2.06893 2.14023 0.38100 2.52123
0.72000 -0.30018 -2.04484 2.09069 0.43868 2.52937
0.73000 -0.32050 -2.01911 2.03841 0.49956 2.53797
0.74000 -0.34056 -1.99177 1.98357 0.56341 2.54698
0.75000 -0.36033 -1.96284 1.92638 0.63001 2.55639
0.76000 -0.37981 -1.93237 1.86703 0.69911 2.56615
0.77000 -0.39898 -1.90039 1.80574 0.77049 2.57623
0.78000 -0.41781 -1.86694 1.74273 0.84388 2.58660
0.79000 -0.43631 -1.83205 1.67820 0.91903 2.59723
0.80000 -0.45445 -1.79576 1.61238 0.99569 2.60808
0.81000 -0.47222 -1.75812 1.54550 1.07361 2.61911
0.82000 -0.48961 -1.71917 1.47777 1.15251 2.63028
0.83000 -0.50660 -1.67894 1.40942 1.23214 2.64157
0.84000 -0.52318 -1.63748 1.34067 1.31225 2.65293
0.85000 -0.53935 -1.59483 1.27174 1.39258 2.66432
0.86000 -0.55508 -1.55103 1.20285 1.47287 2.67572
0.87000 -0.57036 -1.50612 1.13420 1.55287 2.68708
0.88000 -0.58520 -1.46015 1.06602 1.63234 2.69836
0.89000 -0.59956 -1.41316 0.99851 1.71104 2.70954
0.90000 -0.61346 -1.36518 0.93186 1.78872 2.72058
0.91000 -0.62686 -1.31627 0.86628 1.86516 2.73144
0.92000 -0.63978 -1.26645 0.80195 1.94014 2.74209
0.93000 -0.65219 -1.21578 0.73906 2.01343 2.75249
0.94000 -0.66409 -1.16429 0.67778 2.08484 2.76263
0.95000 -0.67547 -1.11202 0.61830 2.15416 2.77246
0.96000 -0.68633 -1.05902 0.56076 2.22120 2.78196
0.97000 -0.69665 -1.00531 0.50532 2.28577 2.79110
0.98000 -0.70643 -0.95094 0.45215 2.34770 2.79985
0.99000 -0.71567 -0.89596 0.40137 2.40683 2.80820
1.00000 -0.72435 -0.84038 0.35312 2.46299 2.81611
1.01000 -0.73247 -0.78426 0.30753 2.51604 2.82357
1.02000 -0.74003 -0.72762 0.26472 2.56584 2.83056
1.03000 -0.74702 -0.67051 0.22479 2.61226 2.83706
1.04000 -0.75344 -0.61296 0.18786 2.65519 2.84305
1.05000 -0.75928 -0.55500 0.15401 2.69451 2.84852
1.06000 -0.76454 -0.49667 0.12334 2.73012 2.85346
1.07000 -0.76921 -0.43800 0.09592 2.76193 2.85785
1.08000 -0.77330 -0.37902 0.07183 2.78987 2.86170
1.09000 -0.77679 -0.31978 0.05113 2.81385 2.86498
1.10000 -0.77969 -0.26030 0.03388 2.83383 2.86771
1.11000 -0.78200 -0.20061 0.02012 2.84974 2.86987
1.12000 -0.78371 -0.14076 0.00991 2.86155 2.87146
1.13000 -0.78481 -0.08076 0.00326 2.86923 2.87249
1.14000 -0.78532 -0.02066 0.00021 2.87275 2.87296
1.15000 -0.78523 0.03951 0.00078 2.87209 2.87287
1.16000 -0.78453 0.09973 0.00497 2.86727 2.87224
1.17000 -0.78323 0.15995 0.01279 2.85827 2.87106
1.18000 -0.78133 0.22014 0.02423 2.84513 2.86936
1.19000 -0.77883 0.28027 0.03928 2.82787 2.86714
1.20000 -0.77573 0.34031 0.05791 2.80652 2.86442
1.21000 -0.77202 0.40022 0.08009 2.78113 2.86122
1.22000 -0.76772 0.45996 0.10578 2.75176 2.85755
1.23000 -0.76283 0.51951 0.13495 2.71848 2.85342
1.24000 -0.75733 0.57882 0.16752 2.68136 2.84888
1.25000 -0.75125 0.63786 0.20343 2.64049 2.84393
1.26000 -0.74458 0.69659 0.24262 2.59597 2.83859
1.27000 -0.73732 0.75498 0.28499 2.54791 2.83291
1.28000 -0.72948 0.81298 0.33046 2.49643 2.82689
1.29000 -0.72106 0.87055 0.37893 2.44165 2.82058
1.30000 -0.71207 0.92766 0.43028 2.38372 2.81399
1.31000 -0.70251 0.98427 0.48439 2.32278 2.80717
1.32000 -0.69239 1.04032 0.54114 2.25900 2.80013
1.33000 -0.68170 1.09579 0.60038 2.19254 2.79292
1.34000 -0.67047 1.15063 0.66197 2.12359 2.78556
1.35000 -0.65869 1.20479 0.72576 2.05233 2.77809
1.36000 -0.64638 1.25823 0.79157 1.97897 2.77054
1.37000 -0.63353 1.31090 0.85924 1.90371 2.76295
1.38000 -0.62016 1.36277 0.92857 1.82678 2.75535
1.39000 -0.60628 1.41377 0.99938 1.74840 2.74778
1.40000 -0.59189 1.46387 1.07146 1.66881 2.74027
1.41000 -0.57701 1.51302 1.14461 1.58824 2.73285
1.42000 -0.56163 1.56116 1.21862 1.50695 2.72557
1.43000 -0.54579 1.60826 1.29325 1.42520 2.71845
1.44000 -0.52947 1.65426 1.36829 1.34325 2.71154
1.45000 -0.51270 1.69912 1.44350 1.26136 2.70486
1.46000 -0.49549 1.74278 1.51863 1.17981 2.69844
1.47000 -0.47785 1.78519 1.59346 1.09887 2.69233
1.48000 -0.45979 1.82632 1.66772 1.01883 2.68655
1.49000 -0.44133 1.86611 1.74118 0.93996 2.68114
1.50000 -0.42248 1.90451 1.81359 0.86253 2.67612
1.51000 -0.40325 1.94149 1.88468 0.78684 2.67152
1.52000 -0.38365 1.97698 1.95422 0.71315 2.66737
1.53000 -0.36371 2.01095 2.02196 0.64174 2.66370
1.54000 -0.34344 2.04335 2.08764 0.57288 2.66052
1.55000 -0.32285 2.07414 2.15104 0.50683 2.65787
1.56000 -0.30196 2.10329 2.21191 0.44385 2.65576
1.57000 -0.28079 2.13074 2.27003 0.38419 2.65421
1.58000 -0.25935 2.15646 2.32517 0.32808 2.65325
1.59000 -0.23767 2.18042 2.37712 0.27576 2.65288
1.60000 -0.21575 2.20258 2.42568 0.22743 2.65312
1.61000 -0.19362 2.22291 2.47067 0.18331 2.65398
1.62000 -0.17130 2.24138 2.51189 0.14357 2.65546
1.63000 -0.14880 2.25796 2.54919 0.10840 2.65759
1.64000 -0.12614 2.27262 2.58241 0.07795 2.66035
1.65000 -0.10335 2.28535 2.61142 0.05235 2.66376
1.66000 -0.08044 2.29612 2.63609 0.03172 2.66782
1.67000 -0.05744 2.30492 2.65633 0.01618 2.67251
1.68000 -0.03435 2.31173 2.67206 0.00579 2.67785
1.69000 -0.01121 2.31655 2.68319 0.00062 2.68381
1.70000 0.01197 2.31935 2.68969 0.00070 2.69040
1.71000 0.03517 2.32014 2.69153 0.00607 2.69759
1.72000 0.05837 2.31891 2.68868 0.01671 2.70539
1.73000 0.08154 2.31567 2.68117 0.03260 2.71377
1.74000 0.10467 2.31042 2.66901 0.05369 2.72271
1.75000 0.12774 2.30316 2.65226 0.07993 2.73220
1.76000 0.15073 2.29390 2.63098 0.11123 2.74221
1.77000 0.17362 2.28265 2.60524 0.14748 2.75272
1.78000 0.19638 2.26943 2.57516 0.18855 2.76371
1.79000 0.21900 2.25426 2.54084 0.23430 2.77515
1.80000 0.24146 2.23715 2.50243 0.28458 2.78701
1.81000 0.26373 2.21813 2.46006 0.33920 2.79926
1.82000 0.28581 2.19723 2.41390 0.39796 2.81187
1.83000 0.30767 2.17446 2.36414 0.46067 2.82481
1.84000 0.32930 2.14986 2.31095 0.52709 2.83804
1.85000 0.35066 2.12346 2.25455 0.59699 2.85154
1.86000 0.37176 2.09530 2.19513 0.67012 2.86526
1.87000 0.39256 2.06540 2.13293 0.74624 2.87917
1.88000 0.41306 2.03380 2.06818 0.82506 2.89324
1.89000 0.43323 2.00055 2.00110 0.90632 2.90742
1.90000 0.45307 1.96568 1.93194 0.98974 2.92168
1.91000 0.47254 1.92922 1.86095 1.07504 2.93599
1.92000 0.49165 1.89123 1.78838 1.16193 2.95031
1.93000 0.51036 1.85175 1.71448 1.25011 2.96460
1.94000 0.52868 1.81081 1.63951 1.33931 2.97882
1.95000 0.54657 1.76846 1.56372 1.42922 2.99294
1.96000 0.56404 1.72474 1.48737 1.51955 3.00692
1.97000 0.58106 1.67971 1.41071 1.61003 3.02073
1.98000 0.59763 1.63339 1.33398 1.70036 3.03434
1.99000 0.61373 1.58584 1.25745 1.79026 3.04771
2.00000 0.62934 1.53711 1.18135 1.87946 3.06081
2.01000 0.64447 1.48723 1.10593 1.96769 3.07361
2.02000 0.65908 1.43625 1.03141 2.05467 3.08608
2.03000 0.67319 1.38422 0.95803 2.14017 3.09820
2.04000 0.68677 1.33117 0.88600 2.22392 3.10993
2.05000 0.69981 1.27715 0.81556 2.30569 3.12125
2.06000 0.71231 1.22221 0.74690 2.38523 3.13213
2.07000 0.72425 1.16638 0.68023 2.46234 3.14257
2.08000 0.73563 1.10972 0.61573 2.53679 3.15252
2.09000 0.74644 1.05225 0.55361 2.60838 3.16199
2.10000 0.75667 0.99402 0.49403 2.67691 3.17095
2.11000 0.76632 0.93507 0.43717 2.74221 3.17938
2.12000 0.77537 0.87544 0.38319 2.80408 3.18728
2.13000 0.78383 0.81516 0.33225 2.86238 3.19463
2.14000 0.79167 0.75429 0.28448 2.91695 3.20142
2.15000 0.79891 0.69285 0.24002 2.96764 3.20766
2.16000 0.80553 0.63088 0.19900 3.01432 3.21332
2.17000 0.81153 0.56842 0.16155 3.05687 3.21842
2.18000 0.81690 0.50551 0.12777 3.09517 3.22294
2.19000 0.82163 0.44217 0.09776 3.12914 3.22690
2.20000 0.82574 0.37846 0.07162 3.15867 3.23029
2.21000 0.82920 0.31440 0.04942 3.18370 3.23312
2.22000 0.83202 0.25003 0.03126 3.20414 3.23539
2.23000 0.83420 0.18538 0.01718 3.21994 3.23713
2.24000 0.83573 0.12049 0.00726 3.23107 3.23833
2.25000 0.83661 0.05540 0.00153 3.23747 3.23901
2.26000 0.83684 -0.00986 0.00005 3.23913 3.23918
2.27000 0.83641 -0.07525 0.00283 3.23603 3.23886
2.28000 0.83533 -0.14074 0.00990 3.22817 3.23808
2.29000 0.83360 -0.20629 0.02128 3.21556 3.23684
2.30000 0.83121 -0.27187 0.03696 3.19821 3.23517
2.31000 0.82816 -0.33743 0.05693 3.17617 3.23310
2.32000 0.82446 -0.40294 0.08118 3.14946 3.23064
2.33000 0.82010 -0.46837 0.10968 3.11814 3.22783
2.34000 0.81509 -0.53366 0.14240 3.08229 3.22469
2.35000 0.80943 -0.59878 0.17927 3.04197 3.22124
2.36000 0.80312 -0.66370 0.22025 2.99728 3.21753
2.37000 0.79616 -0.72837 0.26526 2.94831 3.21357
2.38000 0.78855 -0.79274 0.31422 2.89519 3.20940
2.39000 0.78030 -0.85677 0.36703 2.83803 3.20506
2.40000 0.77142 -0.92043 0.42359 2.77698 3.20057
2.41000 0.76190 -0.98365 0.48379 2.71218 3.19597
2.42000 0.75175 -1.04640 0.54748 2.64381 3.19129
2.43000 0.74097 -1.10864 0.61454 2.57204 3.18658
2.44000 0.72957 -1.17030 0.68480 2.49706 3.18185
2.45000 0.71757 -1.23134 0.75810 2.41906 3.17716
2.46000 0.70495 -1.29171 0.83425 2.33827 3.17253
2.47000 0.69173 -1.35135 0.91308 2.25492 3.16799
2.48000 0.67793 -1.41022 0.99436 2.16923 3.16360
2.49000 0.66353 -1.46826 1.07790 2.08147 3.15937
2.50000 0.64856 -1.52542 1.16345 1.99190 3.15534
2.51000 0.63303 -1.58163 1.25078 1.90078 3.15156
2.52000 0.61693 -1.63685 1.33963 1.80841 3.14804
2.53000 0.60029 -1.69101 1.42975 1.71508 3.14484
2.54000 0.58312 -1.74405 1.52086 1.62110 3.14196
2.55000 0.56542 -1.79593 1.61269 1.52677 3.13946
2.56000 0.54720 -1.84658 1.70493 1.43242 3.13736
2.57000 0.52849 -1.89594 1.79730 1.33838 3.13568
2.58000 0.50929 -1.94395 1.88948 1.24497 3.13445
2.59000 0.48961 -1.99056 1.98117 1.15254 3.13371
2.60000 0.46948 -2.03571 2.07205 1.06142 3.13347
2.61000 0.44891 -2.07933 2.16180 0.97195 3.13375
2.62000 0.42790 -2.12137 2.25011 0.88448 3.13459
2.63000 0.40648 -2.16178 2.33665 0.79935 3.13600
2.64000 0.38467 -2.20050 2.42109 0.71690 3.13799
2.65000 0.36248 -2.23747 2.50313 0.63745 3.14058
2.66000 0.33993 -2.27264 2.58245 0.56134 3.14379
2.67000 0.31703 -2.30596 2.65873 0.48889 3.14762
2.68000 0.29381 -2.33739 2.73169 0.42040 3.15209
2.69000 0.27029 -2.36686 2.80102 0.35617 3.15720
2.70000 0.24648 -2.39435 2.86646 0.29649 3.16295
2.71000 0.22241 -2.41980 2.92772 0.24164 3.16936
2.72000 0.19809 -2.44318 2.98456 0.19185 3.17641
2.73000 0.17355 -2.46444 3.03674 0.14737 3.18412
2.74000 0.14881 -2.48356 3.08404 0.10842 3.19246
2.75000 0.12389 -2.50050 3.12625 0.07519 3.20144
2.76000 0.09881 -2.51523 3.16320 0.04785 3.21105
2.77000 0.07359 -2.52773 3.19472 0.02655 3.22127
2.78000 0.04826 -2.53798 3.22067 0.01142 3.23209
2.79000 0.02284 -2.54595 3.24094 0.00256 3.24350
2.80000 -0.00265 -2.55164 3.25544 0.00003 3.25547
2.81000 -0.02818 -2.55503 3.26409 0.00390 3.26799
2.82000 -0.05374 -2.55612 3.26687 0.01416 3.28103
2.83000 -0.07930 -2.55490 3.26375 0.03083 3.29458
2.84000 -0.10483 -2.55137 3.25474 0.05385 3.30859
2.85000 -0.13032 -2.54553 3.23987 0.08318 3.32305
2.86000 -0.15573 -2.53740 3.21921 0.11872 3.33793
2.87000 -0.18106 -2.52699 3.19284 0.16036 3.35320
2.88000 -0.20627 -2.51431 3.16087 0.20795 3.36881
2.89000 -0.23134 -2.49937 3.12342 0.26133 3.38475
2.90000 -0.25625 -2.48220 3.08066 0.32031 3.40097
2.91000 -0.28097 -2.46282 3.03275 0.38469 3.41744
2.92000 -0.30550 -2.44127 2.97990 0.45422 3.43412
2.93000 -0.32979 -2.41757 2.92232 0.52866 3.45098
2.94000 -0.35384 -2.39175 2.86024 0.60774 3.46798
2.95000 -0.37762 -2.36386 2.79391 0.69116 3.48507
2.96000 -0.40111 -2.33392 2.72359 0.77864 3.50223
2.97000 -0.42429 -2.30198 2.64956 0.86985 3.51940
2.98000 -0.44714 -2.26809 2.57211 0.96446 3.53657
2.99000 -0.46965 -2.23228 2.49153 1.06215 3.55368
3.00000 -0.49178 -2.19460 2.40813 1.16256 3.57069
3.01000 -0.51353 -2.15510 2.32223 1.26535 3.58758
3.02000 -0.53488 -2.11383 2.23415 1.37016 3.60431
3.03000 -0.55580 -2.07084 2.14419 1.47663 3.62083
3.04000 -0.57629 -2.02618 2.05270 1.58441 3.63711
3.05000 -0.59632 -1.97989 1.95999 1.69314 3.65313
3.06000 -0.61588 -1.93204 1.86639 1.80245 3.66884
3.07000 -0.63496 -1.88267 1.77222 1.91200 3.68422
3.08000 -0.65353 -1.83183 1.67781 2.02143 3.69924
3.09000 -0.67159 -1.77958 1.58346 2.13040 3.71386
3.10000 -0.68912 -1.72597 1.48949 2.23857 3.72806
3.11000 -0.70610 -1.67105 1.39621 2.34562 3.74182
3.12000 -0.72254 -1.61487 1.30391 2.45121 3.75511
3.13000 -0.73840 -1.55749 1.21288 2.55504 3.76792
3.14000 -0.75368 -1.49894 1.12341 2.65680 3.78021
3.15000 -0.76837 -1.43929 1.03578 2.75620 3.79197
3.16000 -0.78246 -1.37858 0.95024 2.85295 3.80320
3.17000 -0.79594 -1.31686 0.86706 2.94680 3.81386
3.18000 -0.80880 -1.25418 0.78648 3.03748 3.82396
3.19000 -0.82102 -1.19058 0.70874 3.12474 3.83348
3.20000 -0.83261 -1.12611 0.63406 3.20836 3.84241
3.21000 -0.84354 -1.06081 0.56266 3.28810 3.85076
3.22000 -0.85382 -0.99473 0.49475 3.36376 3.85851
3.23000 -0.86343 -0.92791 0.43051 3.43515 3.86566
3.24000 -0.87238 -0.86040 0.37015 3.50208 3.87223
3.25000 -0.88064 -0.79223 0.31382 3.56438 3.87820
3.26000 -0.88822 -0.72345 0.26169 3.62189 3.88358
3.27000 -0.89511 -0.65409 0.21392 3.67447 3.88839
3.28000 -0.90130 -0.58420 0.17065 3.72199 3.89263
3.29000 -0.90679 -0.51382 0.13200 3.76431 3.89632
3.30000 -0.91157 -0.44297 0.09811 3.80134 3.89946
3.31000 -0.91565 -0.37171 0.06909 3.83298 3.90207
3.32000 -0.91901 -0.30007 0.04502 3.85915 3.90417
3.33000 -0.92165 -0.22809 0.02601 3.87977 3.90578
3.34000 -0.92357 -0.15579 0.01214 3.89478 3.90692
3.35000 -0.92476 -0.08324 0.00346 3.90414 3.90760
3.36000 -0.92523 -0.01045 0.00005 3.90781 3.90786
3.37000 -0.92497 0.06254 0.00196 3.90577 3.90773
3.38000 -0.92398 0.13567 0.00920 3.89801 3.90721
3.39000 -0.92226 0.20892 0.02182 3.88453 3.90636
3.40000 -0.91980 0.28225 0.03983 3.86535 3.90518
3.41000 -0.91661 0.35562 0.06323 3.84049 3.90372
3.42000 -0.91269 0.42898 0.09201 3.81000 3.90201
3.43000 -0.90803 0.50230 0.12615 3.77392 3.90008
3.44000 -0.90264 0.57553 0.16562 3.73233 3.89795
3.45000 -0.89652 0.64864 0.21036 3.68531 3.89568
3.46000 -0.88967 0.72156 0.26033 3.63296 3.89328
3.47000 -0.88209 0.79427 0.31543 3.57537 3.89081
3.48000 -0.87379 0.86671 0.37560 3.51268 3.88828
3.49000 -0.86476 0.93884 0.44071 3.44503 3.88574
3.50000 -0.85501 1.01060 0.51066 3.37257 3.88323
3.51000 -0.84455 1.08195 0.58531 3.29547 3.88078
3.52000 -0.83337 1.15283 0.66451 3.21392 3.87843
3.53000 -0.82149 1.22318 0.74809 3.12812 3.87621
3.54000 -0.80891 1.29296 0.83587 3.03829 3.87416
3.55000 -0.79564 1.36210 0.92766 2.94466 3.87232
3.56000 -0.78167 1.43055 1.02324 2.84748 3.87072
3.57000 -0.76703 1.49825 1.12237 2.74702 3.86939
3.58000 -0.75171 1.56513 1.22481 2.64357 3.86838
3.59000 -0.73573 1.63112 1.33028 2.53743 3.86771
3.60000 -0.71909 1.69618 1.43851 2.42890 3.86741
3.61000 -0.70181 1.76022 1.54919 2.31833 3.86752
3.62000 -0.68389 1.82318 1.66200 2.20606 3.86806
3.63000 -0.66535 1.88500 1.77662 2.09245 3.86906
3.64000 -0.64619 1.94560 1.89269 1.97787 3.87056
3.65000 -0.62644 2.00492 2.00985 1.86272 3.87257
3.66000 -0.60610 2.06287 2.12773 1.74739 3.87512
3.67000 -0.58519 2.11940 2.24593 1.63230 3.87823
3.68000 -0.56372 2.17443 2.36407 1.51785 3.88192
3.69000 -0.54170 2.22788 2.48173 1.40448 3.88621
3.70000 -0.51916 2.27969 2.59849 1.29262 3.89111
3.71000 -0.49612 2.32978 2.71394 1.18271 3.89665
3.72000 -0.47257 2.37808 2.82764 1.07518 3.90282
3.73000 -0.44856 2.42453 2.93917 0.97048 3.90965
3.74000 -0.42409 2.46905 3.04810 0.86903 3.91713
3.75000 -0.39919 2.51157 3.15399 0.77128 3.92528
3.76000 -0.37387 2.55203 3.25643 0.67765 3.93408
3.77000 -0.34815 2.59037 3.35501 0.58855 3.94356
3.78000 -0.32207 2.62652 3.44930 0.50439 3.95370
3.79000 -0.29563 2.66042 3.53893 0.42557 3.96449
3.80000 -0.26886 2.69202 3.62350 0.35244 3.97594
3.81000 -0.24180 2.72127 3.70265 0.28538 3.98803
3.82000 -0.21445 2.74811 3.77604 0.22471 4.00075
3.83000 -0.18684 2.77249 3.84335 0.17074 4.01408
3.84000 -0.15901 2.79437 3.90426 0.12375 4.02802
3.85000 -0.13096 2.81372 3.95852 0.08401 4.04253
3.86000 -0.10274 2.83050 4.00587 0.05173 4.05760
3.87000 -0.07436 2.84468 4.04610 0.02711 4.07321
3.88000 -0.04586 2.85623 4.07901 0.01031 4.08933
3.89000 -0.01725 2.86512 4.10447 0.00146 4.10593
3.90000 0.01144 2.87135 4.12234 0.00064 4.12298
3.91000 0.04017 2.87491 4.13255 0.00791 4.14046
3.92000 0.06893 2.87577 4.13503 0.02329 4.15833
3.93000 0.09768 2.87395 4.12979 0.04676 4.17656
3.94000 0.12640 2.86944 4.11685 0.07826 4.19510
3.95000 0.15506 2.86225 4.09624 0.11770 4.21394
3.96000 0.18363 2.85240 4.06808 0.16494 4.23302
3.97000 0.21210 2.83989 4.03249 0.21983 4.25231
