# t theta omega E_kin E_pot E_tot
0.00000 0.78540 0.10000 0.00500 2.87328 2.87828
0.01000 0.78605 0.03061 0.00047 2.87781 2.87828
0.02000 0.78601 -0.03881 0.00075 2.87753 2.87828
0.03000 0.78528 -0.10820 0.00585 2.87243 2.87828
0.04000 0.78385 -0.17751 0.01575 2.86253 2.87828
0.05000 0.78173 -0.24670 0.03043 2.84785 2.87828
0.06000 0.77891 -0.31572 0.04984 2.82844 2.87828
0.07000 0.77541 -0.38452 0.07393 2.80436 2.87828
0.08000 0.77122 -0.45304 0.10262 2.77566 2.87828
0.09000 0.76635 -0.52125 0.13585 2.74243 2.87828
0.10000 0.76080 -0.58909 0.17352 2.70477 2.87828
0.11000 0.75457 -0.65652 0.21551 2.66278 2.87828
0.12000 0.74767 -0.72347 0.26170 2.61658 2.87828
0.13000 0.74010 -0.78990 0.31197 2.56631 2.87828
0.14000 0.73187 -0.85576 0.36616 2.51212 2.87828
0.15000 0.72299 -0.92100 0.42412 2.45416 2.87828
0.16000 0.71346 -0.98556 0.48566 2.39262 2.87828
0.17000 0.70328 -1.04938 0.55060 2.32768 2.87828
0.18000 0.69247 -1.11243 0.61875 2.25954 2.87828
0.19000 0.68104 -1.17463 0.68987 2.18841 2.87828
0.20000 0.66898 -1.23593 0.76377 2.11452 2.87828
0.21000 0.65632 -1.29629 0.84018 2.03810 2.87828
0.22000 0.64306 -1.35564 0.91888 1.95941 2.87828
0.23000 0.62921 -1.41392 0.99959 1.87870 2.87828
0.24000 0.61479 -1.47108 1.08204 1.79624 2.87828
0.25000 0.59979 -1.52707 1.16597 1.71232 2.87828
0.26000 0.58425 -1.58181 1.25107 1.62721 2.87828
0.27000 0.56816 -1.63527 1.33705 1.54123 2.87828
0.28000 0.55155 -1.68737 1.42360 1.45468 2.87828
0.29000 0.53442 -1.73806 1.51042 1.36786 2.87828
0.30000 0.51679 -1.78728 1.59719 1.28110 2.87828
0.31000 0.49868 -1.83498 1.68357 1.19471 2.87828
0.32000 0.48010 -1.88110 1.76926 1.10902 2.87828
0.33000 0.46106 -1.92558 1.85393 1.02436 2.87828
0.34000 0.44159 -1.96837 1.93724 0.94105 2.87828
0.35000 0.42170 -2.00941 2.01887 0.85941 2.87828
0.36000 0.40141 -2.04866 2.09850 0.77978 2.87828
0.37000 0.38073 -2.08605 2.17581 0.70247 2.87828
0.38000 0.35969 -2.12155 2.25049 0.62780 2.87828
0.39000 0.33831 -2.15510 2.32222 0.55606 2.87828
0.40000 0.31660 -2.18665 2.39072 0.48756 2.87828
0.41000 0.29458 -2.21617 2.45570 0.42258 2.87828
0.42000 0.27228 -2.24360 2.51688 0.36140 2.87828
0.43000 0.24972 -2.26892 2.57400 0.30428 2.87828
0.44000 0.22691 -2.29208 2.62681 0.25147 2.87828
0.45000 0.20388 -2.31305 2.67509 0.20319 2.87828
0.46000 0.18066 -2.33179 2.71863 0.15965 2.87828
0.47000 0.15726 -2.34829 2.75724 0.12105 2.87828
0.48000 0.13370 -2.36251 2.79073 0.08755 2.87828
0.49000 0.11001 -2.37444 2.81898 0.05930 2.87828
0.50000 0.08622 -2.38405 2.84184 0.03644 2.87828
0.51000 0.06234 -2.39133 2.85923 0.01906 2.87828
0.52000 0.03840 -2.39627 2.87105 0.00723 2.87828
0.53000 0.01442 -2.39886 2.87726 0.00102 2.87828
0.54000 -0.00957 -2.39910 2.87783 0.00045 2.87828
0.55000 -0.03355 -2.39698 2.87276 0.00552 2.87828
0.56000 -0.05750 -2.39252 2.86207 0.01621 2.87828
0.57000 -0.08139 -2.38571 2.84580 0.03248 2.87828
0.58000 -0.10521 -2.37657 2.82404 0.05424 2.87828
0.59000 -0.12892 -2.36511 2.79687 0.08141 2.87828
0.60000 -0.15250 -2.35135 2.76443 0.11385 2.87828
0.61000 -0.17594 -2.33531 2.72684 0.15144 2.87828
0.62000 -0.19920 -2.31702 2.68429 0.19399 2.87828
0.63000 -0.22227 -2.29650 2.63695 0.24133 2.87828
0.64000 -0.24512 -2.27378 2.58503 0.29325 2.87828
0.65000 -0.26774 -2.24890 2.52877 0.34952 2.87828
0.66000 -0.29009 -2.22189 2.46839 0.40989 2.87828
0.67000 -0.31217 -2.19279 2.40416 0.47412 2.87828
0.68000 -0.33394 -2.16164 2.33635 0.54193 2.87828
0.69000 -0.35540 -2.12849 2.26524 0.61304 2.87828
0.70000 -0.37651 -2.09339 2.19114 0.68715 2.87828
0.71000 -0.39726 -2.05637 2.11433 0.76395 2.87828
0.72000 -0.41763 -2.01750 2.03515 0.84314 2.87828
0.73000 -0.43760 -1.97681 1.95389 0.92439 2.87828
0.74000 -0.45716 -1.93437 1.87090 1.00739 2.87828
0.75000 -0.47628 -1.89023 1.78648 1.09180 2.87828
0.76000 -0.49496 -1.84444 1.70097 1.17731 2.87828
0.77000 -0.51317 -1.79705 1.61470 1.26358 2.87828
0.78000 -0.53089 -1.74813 1.52798 1.35030 2.87828
0.79000 -0.54812 -1.69773 1.44115 1.43713 2.87828
0.80000 -0.56484 -1.64591 1.35452 1.52376 2.87828
0.81000 -0.58104 -1.59273 1.26840 1.60989 2.87828
0.82000 -0.59669 -1.53824 1.18309 1.69519 2.87828
0.83000 -0.61180 -1.48250 1.09891 1.77937 2.87828
0.84000 -0.62634 -1.42557 1.01613 1.86215 2.87828
0.85000 -0.64031 -1.36751 0.93505 1.94324 2.87828
0.86000 -0.65369 -1.30838 0.85592 2.02236 2.87828
0.87000 -0.66647 -1.24822 0.77903 2.09926 2.87828
0.88000 -0.67865 -1.18710 0.70460 2.17368 2.87828
0.89000 -0.69021 -1.12508 0.63290 2.24539 2.87828
0.90000 -0.70115 -1.06220 0.56413 2.31415 2.87828
0.91000 -0.71145 -0.99853 0.49853 2.37976 2.87828
0.92000 -0.72111 -0.93411 0.43628 2.44200 2.87828
0.93000 -0.73013 -0.86901 0.37759 2.50069 2.87828
0.94000 -0.73849 -0.80327 0.32262 2.55566 2.87828
0.95000 -0.74619 -0.73695 0.27155 2.60674 2.87828
0.96000 -0.75323 -0.67010 0.22451 2.65377 2.87828
0.97000 -0.75959 -0.60277 0.18166 2.69662 2.87828
0.98000 -0.76528 -0.53501 0.14312 2.73517 2.87828
0.99000 -0.77029 -0.46687 0.10898 2.76930 2.87828
1.00000 -0.77462 -0.39840 0.07936 2.79892 2.87828
1.01000 -0.77826 -0.32965 0.05434 2.82395 2.87828
1.02000 -0.78121 -0.26067 0.03398 2.84431 2.87828
1.03000 -0.78347 -0.19152 0.01834 2.85994 2.87828
1.04000 -0.78504 -0.12222 0.00747 2.87081 2.87828
1.05000 -0.78592 -0.05285 0.00140 2.87689 2.87828
1.06000 -0.78610 0.01657 0.00014 2.87815 2.87828
1.07000 -0.78559 0.08597 0.00370 2.87459 2.87828
1.08000 -0.78438 0.15531 0.01206 2.86622 2.87828
1.09000 -0.78248 0.22455 0.02521 2.85307 2.87828
1.10000 -0.77989 0.29362 0.04311 2.83517 2.87828
1.11000 -0.77661 0.36250 0.06570 2.81258 2.87828
1.12000 -0.77264 0.43112 0.09293 2.78535 2.87828
1.13000 -0.76799 0.49943 0.12472 2.75357 2.87828
1.14000 -0.76265 0.56740 0.16097 2.71731 2.87828
1.15000 -0.75664 0.63496 0.20159 2.67669 2.87828
1.16000 -0.74996 0.70207 0.24645 2.63183 2.87828
1.17000 -0.74260 0.76867 0.29543 2.58285 2.87828
1.18000 -0.73458 0.83472 0.34838 2.52990 2.87828
1.19000 -0.72591 0.90017 0.40515 2.47313 2.87828
1.20000 -0.71658 0.96495 0.46556 2.41272 2.87828
1.21000 -0.70661 1.02901 0.52944 2.34885 2.87828
1.22000 -0.69600 1.09231 0.59657 2.28171 2.87828
1.23000 -0.68477 1.15479 0.66677 2.21151 2.87828
1.24000 -0.67291 1.21639 0.73980 2.13848 2.87828
1.25000 -0.66044 1.27706 0.81544 2.06285 2.87828
1.26000 -0.64737 1.33673 0.89343 1.98485 2.87828
1.27000 -0.63371 1.39537 0.97352 1.90476 2.87828
1.28000 -0.61947 1.45289 1.05545 1.82283 2.87828
1.29000 -0.60466 1.50926 1.13893 1.73935 2.87828
1.30000 -0.58929 1.56441 1.22369 1.65459 2.87828
1.31000 -0.57337 1.61828 1.30942 1.56886 2.87828
1.32000 -0.55693 1.67082 1.39582 1.48246 2.87828
1.33000 -0.53996 1.72197 1.48259 1.39569 2.87828
1.34000 -0.52249 1.77167 1.56941 1.30887 2.87828
1.35000 -0.50453 1.81986 1.65595 1.22233 2.87828
1.36000 -0.48610 1.86650 1.74190 1.13638 2.87828
1.37000 -0.46721 1.91151 1.82693 1.05135 2.87828
1.38000 -0.44788 1.95484 1.91071 0.96757 2.87828
1.39000 -0.42812 1.99645 1.99291 0.88537 2.87828
1.40000 -0.40795 2.03628 2.07322 0.80506 2.87828
1.41000 -0.38740 2.07428 2.15131 0.72697 2.87828
1.42000 -0.36647 2.11039 2.22686 0.65142 2.87828
1.43000 -0.34520 2.14456 2.29958 0.57871 2.87828
1.44000 -0.32359 2.17676 2.36915 0.50914 2.87828
1.45000 -0.30167 2.20693 2.43528 0.44300 2.87828
1.46000 -0.27946 2.23504 2.49771 0.38058 2.87828
1.47000 -0.25698 2.26104 2.55615 0.32213 2.87828
1.48000 -0.23424 2.28489 2.61037 0.26791 2.87828
1.49000 -0.21128 2.30657 2.66013 0.21815 2.87828
1.50000 -0.18812 2.32603 2.70521 0.17307 2.87828
1.51000 -0.16477 2.34325 2.74541 0.13287 2.87828
1.52000 -0.14126 2.35820 2.78057 0.09772 2.87828
1.53000 -0.11762 2.37087 2.81051 0.06777 2.87828
1.54000 -0.09385 2.38122 2.83511 0.04317 2.87828
1.55000 -0.07000 2.38925 2.85426 0.02402 2.87828
1.56000 -0.04608 2.39494 2.86787 0.01041 2.87828
1.57000 -0.02211 2.39828 2.87589 0.00240 2.87828
1.58000 0.00188 2.39928 2.87827 0.00002 2.87828
1.59000 0.02587 2.39792 2.87500 0.00328 2.87828
1.60000 0.04983 2.39420 2.86610 0.01218 2.87828
1.61000 0.07375 2.38815 2.85162 0.02666 2.87828
1.62000 0.09759 2.37975 2.83161 0.04668 2.87828
1.63000 0.12133 2.36903 2.80616 0.07212 2.87828
1.64000 0.14496 2.35601 2.77539 0.10289 2.87828
1.65000 0.16845 2.34070 2.73944 0.13885 2.87828
1.66000 0.19177 2.32313 2.69845 0.17983 2.87828
1.67000 0.21490 2.30331 2.65263 0.22565 2.87828
1.68000 0.23783 2.28130 2.60215 0.27613 2.87828
1.69000 0.26052 2.25710 2.54726 0.33103 2.87828
1.70000 0.28296 2.23077 2.48817 0.39011 2.87828
1.71000 0.30513 2.20234 2.42514 0.45314 2.87828
1.72000 0.32700 2.17184 2.35845 0.51983 2.87828
1.73000 0.34856 2.13933 2.28837 0.58991 2.87828
1.74000 0.36978 2.10485 2.21519 0.66309 2.87828
1.75000 0.39065 2.06844 2.13922 0.73906 2.87828
1.76000 0.41114 2.03015 2.06076 0.81752 2.87828
1.77000 0.43125 1.99004 1.98013 0.89815 2.87828
1.78000 0.45094 1.94816 1.89766 0.98062 2.87828
1.79000 0.47020 1.90455 1.81366 1.06462 2.87828
1.80000 0.48902 1.85928 1.72847 1.14981 2.87828
1.81000 0.50738 1.81241 1.64241 1.23588 2.87828
1.82000 0.52527 1.76397 1.55580 1.32248 2.87828
1.83000 0.54266 1.71404 1.46897 1.40931 2.87828
1.84000 0.55954 1.66267 1.38224 1.49605 2.87828
1.85000 0.57591 1.60992 1.29592 1.58237 2.87828
1.86000 0.59174 1.55584 1.21032 1.66796 2.87828
1.87000 0.60702 1.50050 1.12574 1.75254 2.87828
1.88000 0.62174 1.44394 1.04248 1.83580 2.87828
1.89000 0.63589 1.38624 0.96083 1.91745 2.87828
1.90000 0.64946 1.32744 0.88105 1.99724 2.87828
1.91000 0.66244 1.26760 0.80341 2.07487 2.87828
1.92000 0.67481 1.20679 0.72817 2.15012 2.87828
1.93000 0.68657 1.14505 0.65556 2.22272 2.87828
1.94000 0.69771 1.08244 0.58583 2.29245 2.87828
1.95000 0.70822 1.01901 0.51919 2.35909 2.87828
1.96000 0.71809 0.95483 0.45585 2.42243 2.87828
1.97000 0.72731 0.88994 0.39600 2.48229 2.87828
1.98000 0.73588 0.82440 0.33982 2.53846 2.87828
1.99000 0.74380 0.75826 0.28748 2.59080 2.87828
2.00000 0.75105 0.69157 0.23914 2.63915 2.87828
2.01000 0.75763 0.62439 0.19493 2.68335 2.87828
2.02000 0.76353 0.55676 0.15499 2.72329 2.87828
2.03000 0.76876 0.48874 0.11943 2.75885 2.87828
2.04000 0.77331 0.42037 0.08836 2.78993 2.87828
2.05000 0.77717 0.35171 0.06185 2.81643 2.87828
2.06000 0.78034 0.28280 0.03999 2.83829 2.87828
2.07000 0.78282 0.21369 0.02283 2.85545 2.87828
2.08000 0.78461 0.14444 0.01043 2.86785 2.87828
2.09000 0.78571 0.07508 0.00282 2.87546 2.87828
2.10000 0.78612 0.00568 0.00002 2.87827 2.87828
2.11000 0.78583 -0.06373 0.00203 2.87625 2.87828
2.12000 0.78484 -0.13310 0.00886 2.86942 2.87828
2.13000 0.78316 -0.20238 0.02048 2.85780 2.87828
2.14000 0.78079 -0.27151 0.03686 2.84142 2.87828
2.15000 0.77773 -0.34045 0.05795 2.82033 2.87828
2.16000 0.77399 -0.40916 0.08371 2.79458 2.87828
2.17000 0.76955 -0.47758 0.11404 2.76424 2.87828
2.18000 0.76444 -0.54566 0.14887 2.72941 2.87828
2.19000 0.75864 -0.61336 0.18810 2.69018 2.87828
2.20000 0.75217 -0.68062 0.23162 2.64666 2.87828
2.21000 0.74503 -0.74739 0.27930 2.59899 2.87828
2.22000 0.73722 -0.81362 0.33099 2.54729 2.87828
2.23000 0.72876 -0.87927 0.38655 2.49173 2.87828
2.24000 0.71964 -0.94426 0.44582 2.43246 2.87828
2.25000 0.70988 -1.00857 0.50860 2.36968 2.87828
2.26000 0.69947 -1.07212 0.57472 2.30356 2.87828
2.27000 0.68844 -1.13486 0.64396 2.23432 2.87828
2.28000 0.67678 -1.19675 0.71611 2.16218 2.87828
2.29000 0.66450 -1.25772 0.79093 2.08735 2.87828
2.30000 0.65163 -1.31772 0.86820 2.01009 2.87828
2.31000 0.63815 -1.37670 0.94765 1.93064 2.87828
2.32000 0.62410 -1.43458 1.02901 1.84927 2.87828
2.33000 0.60947 -1.49133 1.11203 1.76625 2.87828
2.34000 0.59427 -1.54687 1.19641 1.68187 2.87828
2.35000 0.57853 -1.60116 1.28186 1.59642 2.87828
2.36000 0.56225 -1.65414 1.36808 1.51020 2.87828
2.37000 0.54545 -1.70574 1.45477 1.42351 2.87828
2.38000 0.52814 -1.75591 1.54161 1.33668 2.87828
2.39000 0.51034 -1.80459 1.62827 1.25001 2.87828
2.40000 0.49206 -1.85173 1.71445 1.16384 2.87828
2.41000 0.47331 -1.89726 1.79980 1.07848 2.87828
2.42000 0.45412 -1.94114 1.88402 0.99426 2.87828
2.43000 0.43449 -1.98331 1.96676 0.91152 2.87828
2.44000 0.41446 -2.02372 2.04772 0.83057 2.87828
2.45000 0.39403 -2.06230 2.12655 0.75173 2.87828
2.46000 0.37322 -2.09902 2.20295 0.67533 2.87828
2.47000 0.35205 -2.13383 2.27661 0.60168 2.87828
2.48000 0.33055 -2.16666 2.34721 0.53107 2.87828
2.49000 0.30873 -2.19749 2.41448 0.46380 2.87828
2.50000 0.28661 -2.22626 2.47812 0.40016 2.87828
2.51000 0.26421 -2.25294 2.53787 0.34041 2.87828
2.52000 0.24155 -2.27749 2.59347 0.28481 2.87828
2.53000 0.21867 -2.29986 2.64469 0.23360 2.87828
2.54000 0.19556 -2.32004 2.69129 0.18700 2.87828
2.55000 0.17227 -2.33798 2.73307 0.14521 2.87828
2.56000 0.14881 -2.35366 2.76986 0.10842 2.87828
2.57000 0.12521 -2.36706 2.80149 0.07679 2.87828
2.58000 0.10148 -2.37816 2.82782 0.05047 2.87828
2.59000 0.07765 -2.38693 2.84872 0.02956 2.87828
2.60000 0.05375 -2.39337 2.86412 0.01417 2.87828
2.61000 0.02979 -2.39747 2.87393 0.00435 2.87828
2.62000 0.00581 -2.39922 2.87812 0.00017 2.87828
2.63000 -0.01819 -2.39861 2.87666 0.00162 2.87828
2.64000 -0.04216 -2.39565 2.86957 0.00872 2.87828
2.65000 -0.06609 -2.39034 2.85687 0.02142 2.87828
2.66000 -0.08996 -2.38269 2.83862 0.03967 2.87828
2.67000 -0.11374 -2.37272 2.81490 0.06338 2.87828
2.68000 -0.13740 -2.36043 2.78582 0.09246 2.87828
2.69000 -0.16094 -2.34585 2.75151 0.12677 2.87828
2.70000 -0.18431 -2.32900 2.71212 0.16616 2.87828
2.71000 -0.20751 -2.30990 2.66783 0.21045 2.87828
2.72000 -0.23050 -2.28859 2.61882 0.25946 2.87828
2.73000 -0.25327 -2.26509 2.56531 0.31297 2.87828
2.74000 -0.27580 -2.23944 2.50754 0.37074 2.87828
2.75000 -0.29806 -2.21167 2.44575 0.43253 2.87828
2.76000 -0.32003 -2.18184 2.38020 0.49808 2.87828
2.77000 -0.34169 -2.14997 2.31118 0.56711 2.87828
2.78000 -0.36302 -2.11611 2.23896 0.63932 2.87828
2.79000 -0.38400 -2.08031 2.16385 0.71444 2.87828
2.80000 -0.40462 -2.04262 2.08615 0.79213 2.87828
2.81000 -0.42485 -2.00309 2.00619 0.87210 2.87828
2.82000 -0.44467 -1.96177 1.92427 0.95401 2.87828
2.83000 -0.46408 -1.91871 1.84072 1.03756 2.87828
2.84000 -0.48304 -1.87397 1.75588 1.12240 2.87828
2.85000 -0.50155 -1.82760 1.67006 1.20822 2.87828
2.86000 -0.51959 -1.77966 1.58359 1.29469 2.87828
2.87000 -0.53714 -1.73020 1.49680 1.38149 2.87828
2.88000 -0.55419 -1.67928 1.41000 1.46828 2.87828
2.89000 -0.57072 -1.62697 1.32351 1.55477 2.87828
2.90000 -0.58672 -1.57331 1.23765 1.64063 2.87828
2.91000 -0.60218 -1.51836 1.15271 1.72557 2.87828
2.92000 -0.61709 -1.46219 1.06900 1.80928 2.87828
2.93000 -0.63142 -1.40485 0.98680 1.89148 2.87828
2.94000 -0.64518 -1.34640 0.90639 1.97189 2.87828
2.95000 -0.65835 -1.28689 0.82804 2.05025 2.87828
2.96000 -0.67091 -1.22638 0.75200 2.12628 2.87828
2.97000 -0.68287 -1.16493 0.67853 2.19976 2.87828
2.98000 -0.69421 -1.10259 0.60785 2.27043 2.87828
2.99000 -0.70492 -1.03942 0.54020 2.33809 2.87828
3.00000 -0.71500 -0.97547 0.47578 2.40251 2.87828
3.01000 -0.72443 -0.91081 0.41478 2.46350 2.87828
3.02000 -0.73321 -0.84547 0.35741 2.52087 2.87828
3.03000 -0.74133 -0.77952 0.30382 2.57446 2.87828
3.04000 -0.74880 -0.71300 0.25418 2.62410 2.87828
3.05000 -0.75559 -0.64597 0.20864 2.66965 2.87828
3.06000 -0.76172 -0.57848 0.16732 2.71097 2.87828
3.07000 -0.76716 -0.51057 0.13034 2.74794 2.87828
3.08000 -0.77193 -0.44231 0.09782 2.78046 2.87828
3.09000 -0.77601 -0.37374 0.06984 2.80844 2.87828
3.10000 -0.77940 -0.30490 0.04648 2.83180 2.87828
3.11000 -0.78210 -0.23585 0.02781 2.85047 2.87828
3.12000 -0.78412 -0.16664 0.01388 2.86440 2.87828
3.13000 -0.78544 -0.09731 0.00474 2.87355 2.87828
3.14000 -0.78606 -0.02792 0.00039 2.87789 2.87828
3.15000 -0.78599 0.04150 0.00086 2.87742 2.87828
3.16000 -0.78523 0.11088 0.00615 2.87214 2.87828
3.17000 -0.78378 0.18019 0.01623 2.86205 2.87828
3.18000 -0.78163 0.24938 0.03109 2.84719 2.87828
3.19000 -0.77879 0.31839 0.05068 2.82760 2.87828
3.20000 -0.77526 0.38717 0.07495 2.80333 2.87828
3.21000 -0.77105 0.45569 0.10383 2.77446 2.87828
3.22000 -0.76615 0.52389 0.13723 2.74105 2.87828
3.23000 -0.76057 0.59171 0.17506 2.70322 2.87828
3.24000 -0.75432 0.65912 0.21722 2.66106 2.87828
3.25000 -0.74739 0.72605 0.26358 2.61471 2.87828
3.26000 -0.73980 0.79246 0.31400 2.56428 2.87828
3.27000 -0.73154 0.85830 0.36834 2.50994 2.87828
3.28000 -0.72263 0.92351 0.42644 2.45185 2.87828
3.29000 -0.71308 0.98804 0.48811 2.39017 2.87828
3.30000 -0.70288 1.05184 0.55318 2.32510 2.87828
3.31000 -0.69204 1.11485 0.62144 2.25684 2.87828
3.32000 -0.68058 1.17702 0.69269 2.18560 2.87828
3.33000 -0.66850 1.23829 0.76668 2.11160 2.87828
3.34000 -0.65582 1.29861 0.84319 2.03509 2.87828
3.35000 -0.64253 1.35791 0.92197 1.95632 2.87828
3.36000 -0.62866 1.41616 1.00275 1.87553 2.87828
3.37000 -0.61422 1.47327 1.08527 1.79302 2.87828
3.38000 -0.59920 1.52921 1.16924 1.70904 2.87828
3.39000 -0.58364 1.58391 1.25438 1.62390 2.87828
3.40000 -0.56753 1.63731 1.34039 1.53789 2.87828
3.41000 -0.55089 1.68936 1.42696 1.45132 2.87828
3.42000 -0.53375 1.73999 1.51378 1.36450 2.87828
3.43000 -0.51610 1.78916 1.60054 1.27774 2.87828
3.44000 -0.49797 1.83679 1.68691 1.19138 2.87828
3.45000 -0.47937 1.88285 1.77256 1.10572 2.87828
3.46000 -0.46032 1.92727 1.85718 1.02110 2.87828
3.47000 -0.44083 1.96999 1.94043 0.93785 2.87828
3.48000 -0.42092 2.01097 2.02199 0.85629 2.87828
3.49000 -0.40062 2.05014 2.10154 0.77674 2.87828
3.50000 -0.37993 2.08746 2.17875 0.69953 2.87828
3.51000 -0.35887 2.12289 2.25332 0.62496 2.87828
3.52000 -0.33747 2.15636 2.32494 0.55334 2.87828
3.53000 -0.31575 2.18783 2.39331 0.48498 2.87828
3.54000 -0.29372 2.21727 2.45814 0.42014 2.87828
3.55000 -0.27141 2.24462 2.51917 0.35912 2.87828
3.56000 -0.24884 2.26986 2.57612 0.30216 2.87828
3.57000 -0.22602 2.29293 2.62877 0.24951 2.87828
3.58000 -0.20299 2.31381 2.67687 0.20141 2.87828
3.59000 -0.17975 2.33248 2.72022 0.15806 2.87828
3.60000 -0.15635 2.34888 2.75863 0.11965 2.87828
3.61000 -0.13278 2.36302 2.79193 0.08636 2.87828
3.62000 -0.10909 2.37485 2.81996 0.05832 2.87828
3.63000 -0.08530 2.38437 2.84262 0.03566 2.87828
3.64000 -0.06141 2.39156 2.85979 0.01849 2.87828
3.65000 -0.03747 2.39641 2.87140 0.00689 2.87828
3.66000 -0.01349 2.39891 2.87739 0.00089 2.87828
3.67000 0.01050 2.39906 2.87774 0.00054 2.87828
3.68000 0.03448 2.39685 2.87245 0.00583 2.87828
3.69000 0.05843 2.39230 2.86154 0.01674 2.87828
3.70000 0.08232 2.38540 2.84506 0.03322 2.87828
3.71000 0.10613 2.37617 2.82309 0.05519 2.87828
3.72000 0.12983 2.36462 2.79572 0.08257 2.87828
3.73000 0.15341 2.35077 2.76307 0.11522 2.87828
3.74000 0.17684 2.33465 2.72529 0.15299 2.87828
3.75000 0.20010 2.31627 2.68254 0.19574 2.87828
3.76000 0.22316 2.29566 2.63502 0.24326 2.87828
3.77000 0.24600 2.27286 2.58294 0.29535 2.87828
3.78000 0.26861 2.24789 2.52650 0.35178 2.87828
3.79000 0.29095 2.22080 2.46597 0.41231 2.87828
3.80000 0.31302 2.19162 2.40160 0.47668 2.87828
3.81000 0.33478 2.16040 2.33366 0.54463 2.87828
3.82000 0.35622 2.12717 2.26243 0.61585 2.87828
3.83000 0.37732 2.09199 2.18821 0.69007 2.87828
3.84000 0.39805 2.05490 2.11131 0.76697 2.87828
3.85000 0.41841 2.01595 2.03204 0.84625 2.87828
3.86000 0.43837 1.97520 1.95071 0.92757 2.87828
3.87000 0.45791 1.93269 1.86765 1.01063 2.87828
3.88000 0.47701 1.88848 1.78319 1.09509 2.87828
3.89000 0.49567 1.84263 1.69764 1.18064 2.87828
3.90000 0.51386 1.79519 1.61135 1.26694 2.87828
3.91000 0.53157 1.74621 1.52462 1.35366 2.87828
3.92000 0.54878 1.69575 1.43779 1.44049 2.87828
3.93000 0.56548 1.64388 1.35117 1.52711 2.87828
3.94000 0.58165 1.59065 1.26508 1.61321 2.87828
3.95000 0.59729 1.53611 1.17981 1.69847 2.87828
3.96000 0.61237 1.48032 1.09568 1.78261 2.87828
3.97000 0.62689 1.42335 1.01296 1.86532 2.87828
